Freq.	V(vout)
2.00000000000000e+001	-7.19146267249047e+000
2.04658598456151e+001	-7.01014031911768e+000
2.09425709610180e+001	-6.83227703790834e+000
2.14303861047521e+001	-6.65792900721803e+000
2.19295639228637e+001	-6.48714698451101e+000
2.24403690860393e+001	-6.31997618579921e+000
2.29630724299377e+001	-6.15645618828484e+000
2.34979510987906e+001	-5.99662085657811e+000
2.40452886923483e+001	-5.84049829273315e+000
2.46053754162476e+001	-5.68811081015443e+000
2.51785082358833e+001	-5.53947493132330e+000
2.57649910338627e+001	-5.39460140909556e+000
2.63651347711281e+001	-5.25349527119932e+000
2.69792576518331e+001	-5.11615588740981e+000
2.76076852920577e+001	-4.98257705872879e+000
2.82507508924551e+001	-4.85274712777329e+000
2.89087954149185e+001	-4.72664910944217e+000
2.95821677633641e+001	-4.60426084081540e+000
3.02712249687242e+001	-4.48555514912839e+000
3.09763323782496e+001	-4.37050003656019e+000
3.16978638492223e+001	-4.25905888049509e+000
3.24362019471786e+001	-4.15119064783204e+000
3.31917381487512e+001	-4.04685012185259e+000
3.39648730492349e+001	-3.94598814010649e+000
3.47560165749875e+001	-3.84855184173936e+000
3.55655882007784e+001	-3.75448492264590e+000
3.63940171721997e+001	-3.66372789684004e+000
3.72417427332573e+001	-3.57621836241000e+000
3.81092143592649e+001	-3.49189127046246e+000
3.89968919951609e+001	-3.41067919546304e+000
3.99052462993776e+001	-3.33251260543362e+000
4.08347588933906e+001	-3.25732013051895e+000
4.17859226170808e+001	-3.18502882847402e+000
4.27592417900446e+001	-3.11556444572802e+000
4.37552324789910e+001	-3.04885167272752e+000
4.47744227713668e+001	-2.98481439238075e+000
4.58173530553554e+001	-2.92337592050035e+000
4.68845763063984e+001	-2.86445923725219e+000
4.79766583803898e+001	-2.80798720873805e+000
4.90941783137006e+001	-2.75388279792260e+000
5.02377286301916e+001	-2.70206926426946e+000
5.14079156553772e+001	-2.65247035152394e+000
5.26053598379076e+001	-2.60501046323146e+000
5.38306960785383e+001	-2.55961482567461e+000
5.50845740667633e+001	-2.51620963802704e+000
5.63676586252890e+001	-2.47472220962499e+000
5.76806300625321e+001	-2.43508108437927e+000
5.90241845333277e+001	-2.39721615241300e+000
6.03990344080403e+001	-2.36105874913113e+000
6.18059086502718e+001	-2.32654174199438e+000
6.32455532033675e+001	-2.29359960534500e+000
6.47187313859256e+001	-2.26216848369370e+000
6.62262242965182e+001	-2.23218624395540e+000
6.77688312278404e+001	-2.20359251713510e+000
6.93473700905062e+001	-2.17632873003302e+000
7.09626778467150e+001	-2.15033812755760e+000
7.26156109540202e+001	-2.12556578626201e+000
7.43070458194344e+001	-2.10195861972189e+000
7.60378792641121e+001	-2.07946537640454e+000
7.78090289988560e+001	-2.05803663065426e+000
7.96214341106993e+001	-2.03762476743051e+000
8.14760555608224e+001	-2.01818396141736e+000
8.33738766940670e+001	-1.99967015111226e+000
8.53159037603184e+001	-1.98204100847302e+000
8.73031664480331e+001	-1.96525590468914e+000
8.93367184301925e+001	-1.94927587261132e+000
9.14176379229749e+001	-1.93406356634392e+000
9.35470282574395e+001	-1.91958321847820e+000
9.57260184645275e+001	-1.90580059541359e+000
9.79557638736891e+001	-1.89268295117118e+000
1.00237446725454e+002	-1.88019898009244e+000
1.02572276798273e+002	-1.86831876876158e+000
1.04961492049954e+002	-1.85701374747508e+000
1.07406359274050e+002	-1.84625664153831e+000
1.09908174771525e+002	-1.83602142265816e+000
1.12468265038070e+002	-1.82628326064648e+000
1.15087987467431e+002	-1.81701847564441e+000
1.17768731071118e+002	-1.80820449104721e+000
1.20511917214871e+002	-1.79981978727213e+000
1.23319000372296e+002	-1.79184385651077e+000
1.26191468896038e+002	-1.78425715857288e+000
1.29130845806931e+002	-1.77704107790689e+000
1.32138689601519e+002	-1.77017788188381e+000
1.35216595078396e+002	-1.76365068039197e+000
1.38366194183787e+002	-1.75744338679526e+000
1.41589156876827e+002	-1.75154068027996e+000
1.44887192014998e+002	-1.74592796961388e+000
1.48262048260183e+002	-1.74059135833035e+000
1.51715515005836e+002	-1.73551761133043e+000
1.55249423325738e+002	-1.73069412290342e+000
1.58865646944856e+002	-1.72610888614602e+000
1.62566103232819e+002	-1.72175046376324e+000
1.66352754220534e+002	-1.71760796022238e+000
1.70227607640475e+002	-1.71367099523143e+000
1.74192717991216e+002	-1.70992967850648e+000
1.78250187626749e+002	-1.70637458578873e+000
1.82402167871181e+002	-1.70299673607499e+000
1.86650860159398e+002	-1.69978757001220e+000
1.90998517204287e+002	-1.69673892941638e+000
1.95447444191162e+002	-1.69384303787027e+000
1.99999999999999e+002	-1.69109248234732e+000
2.04658598456150e+002	-1.68848019581969e+000
2.09425709610179e+002	-1.68599944080235e+000
2.14303861047521e+002	-1.68364379378237e+000
2.19295639228636e+002	-1.68140713048613e+000
2.24403690860392e+002	-1.67928361194594e+000
2.29630724299376e+002	-1.67726767130799e+000
2.34979510987905e+002	-1.67535400134607e+000
2.40452886923482e+002	-1.67353754263612e+000
2.46053754162476e+002	-1.67181347234892e+000
2.51785082358833e+002	-1.67017719362107e+000
2.57649910338626e+002	-1.66862432546495e+000
2.63651347711281e+002	-1.66715069318768e+000
2.69792576518330e+002	-1.66575231927581e+000
2.76076852920576e+002	-1.66442541472281e+000
2.82507508924550e+002	-1.66316637076160e+000
2.89087954149185e+002	-1.66197175097883e+000
2.95821677633641e+002	-1.66083828378606e+000
3.02712249687241e+002	-1.65976285522128e+000
3.09763323782495e+002	-1.65874250205751e+000
3.16978638492222e+002	-1.65777440520814e+000
3.24362019471785e+002	-1.65685588339778e+000
3.31917381487511e+002	-1.65598438709184e+000
3.39648730492348e+002	-1.65515749267074e+000
3.47560165749874e+002	-1.65437289682741e+000
3.55655882007783e+002	-1.65362841118428e+000
3.63940171721995e+002	-1.65292195711906e+000
3.72417427332572e+002	-1.65225156078576e+000
3.81092143592648e+002	-1.65161534832411e+000
3.89968919951608e+002	-1.65101154125059e+000
3.99052462993775e+002	-1.65043845203063e+000
4.08347588933904e+002	-1.64989447981089e+000
4.17859226170806e+002	-1.64937810632357e+000
4.27592417900445e+002	-1.64888789194313e+000
4.37552324789909e+002	-1.64842247190360e+000
4.47744227713666e+002	-1.64798055266149e+000
4.58173530553553e+002	-1.64756090840781e+000
4.68845763063983e+002	-1.64716237771826e+000
4.79766583803896e+002	-1.64678386034904e+000
4.90941783137004e+002	-1.64642431416038e+000
5.02377286301914e+002	-1.64608275217421e+000
5.14079156553771e+002	-1.64575823976204e+000
5.26053598379074e+002	-1.64544989195260e+000
5.38306960785381e+002	-1.64515687086309e+000
5.50845740667631e+002	-1.64487838324725e+000
5.63676586252888e+002	-1.64461367815440e+000
5.76806300625319e+002	-1.64436204470324e+000
5.90241845333275e+002	-1.64412280995669e+000
6.03990344080401e+002	-1.64389533690052e+000
6.18059086502716e+002	-1.64367902252527e+000
6.32455532033673e+002	-1.64347329599717e+000
6.47187313859254e+002	-1.64327761692567e+000
6.62262242965179e+002	-1.64309147371623e+000
6.77688312278402e+002	-1.64291438200835e+000
6.93473700905060e+002	-1.64274588319676e+000
7.09626778467148e+002	-1.64258554302580e+000
7.26156109540200e+002	-1.64243295026197e+000
7.43070458194342e+002	-1.64228771543697e+000
7.60378792641119e+002	-1.64214946965497e+000
7.78090289988558e+002	-1.64201786346863e+000
7.96214341106991e+002	-1.64189256581284e+000
8.14760555608222e+002	-1.64177326300041e+000
8.33738766940667e+002	-1.64165965776884e+000
8.53159037603181e+002	-1.64155146838414e+000
8.73031664480328e+002	-1.64144842779085e+000
8.93367184301922e+002	-1.64135028281214e+000
9.14176379229746e+002	-1.64125679339365e+000
9.35470282574392e+002	-1.64116773188835e+000
9.57260184645272e+002	-1.64108288238522e+000
9.79557638736888e+002	-1.64100204007113e+000
1.00237446725454e+003	-1.64092501063362e+000
1.02572276798272e+003	-1.64085160969347e+000
1.04961492049954e+003	-1.64078166227035e+000
1.07406359274050e+003	-1.64071500228100e+000
1.09908174771524e+003	-1.64065147206280e+000
1.12468265038069e+003	-1.64059092192525e+000
1.15087987467431e+003	-1.64053320972691e+000
1.17768731071117e+003	-1.64047820047917e+000
1.20511917214871e+003	-1.64042576596379e+000
1.23319000372296e+003	-1.64037578438319e+000
1.26191468896038e+003	-1.64032814002247e+000
1.29130845806930e+003	-1.64028272293268e+000
1.32138689601518e+003	-1.64023942863265e+000
1.35216595078396e+003	-1.64019815782649e+000
1.38366194183787e+003	-1.64015881613657e+000
1.41589156876827e+003	-1.64012131385410e+000
1.44887192014997e+003	-1.64008556569768e+000
1.48262048260183e+003	-1.64005149059318e+000
1.51715515005836e+003	-1.64001901145866e+000
1.55249423325738e+003	-1.63998805500559e+000
1.58865646944855e+003	-1.63995855154746e+000
1.62566103232819e+003	-1.63993043482317e+000
1.66352754220533e+003	-1.63990364182803e+000
1.70227607640474e+003	-1.63987811264974e+000
1.74192717991215e+003	-1.63985379032269e+000
1.78250187626748e+003	-1.63983062068157e+000
1.82402167871181e+003	-1.63980855222663e+000
1.86650860159397e+003	-1.63978753599633e+000
1.90998517204286e+003	-1.63976752544645e+000
1.95447444191161e+003	-1.63974847633564e+000
1.99999999999999e+003	-1.63973034661664e+000
2.04658598456150e+003	-1.63971309633498e+000
2.09425709610179e+003	-1.63969668752972e+000
2.14303861047520e+003	-1.63968108414643e+000
2.19295639228636e+003	-1.63966625194701e+000
2.24403690860391e+003	-1.63965215842757e+000
2.29630724299375e+003	-1.63963877274319e+000
2.34979510987905e+003	-1.63962606563419e+000
2.40452886923481e+003	-1.63961400935613e+000
2.46053754162475e+003	-1.63960257761505e+000
2.51785082358832e+003	-1.63959174550610e+000
2.57649910338625e+003	-1.63958148945413e+000
2.63651347711280e+003	-1.63957178716091e+000
2.69792576518329e+003	-1.63956261755128e+000
2.76076852920575e+003	-1.63955396072514e+000
2.82507508924549e+003	-1.63954579791247e+000
2.89087954149184e+003	-1.63953811142908e+000
2.95821677633640e+003	-1.63953088463536e+000
3.02712249687240e+003	-1.63952410189985e+000
3.09763323782494e+003	-1.63951774856267e+000
3.16978638492221e+003	-1.63951181090320e+000
3.24362019471784e+003	-1.63950627610664e+000
3.31917381487510e+003	-1.63950113223738e+000
3.39648730492347e+003	-1.63949636821134e+000
3.47560165749873e+003	-1.63949197377002e+000
3.55655882007782e+003	-1.63948793945986e+000
3.63940171721994e+003	-1.63948425660751e+000
3.72417427332571e+003	-1.63948091730320e+000
3.81092143592647e+003	-1.63947791438385e+000
3.89968919951606e+003	-1.63947524141337e+000
3.99052462993773e+003	-1.63947289267332e+000
4.08347588933903e+003	-1.63947086314551e+000
4.17859226170805e+003	-1.63946914850567e+000
4.27592417900444e+003	-1.63946774511076e+000
4.37552324789908e+003	-1.63946664999276e+000
4.47744227713665e+003	-1.63946586085184e+000
4.58173530553552e+003	-1.63946537605263e+000
4.68845763063981e+003	-1.63946519461880e+000
4.79766583803895e+003	-1.63946531623467e+000
4.90941783137003e+003	-1.63946574124285e+000
5.02377286301913e+003	-1.63946647064591e+000
5.14079156553769e+003	-1.63946750611049e+000
5.26053598379073e+003	-1.63946884997072e+000
5.38306960785379e+003	-1.63947050523471e+000
5.50845740667629e+003	-1.63947247559226e+000
5.63676586252887e+003	-1.63947476542482e+000
5.76806300625317e+003	-1.63947737981488e+000
5.90241845333273e+003	-1.63948032456112e+000
6.03990344080399e+003	-1.63948360618981e+000
6.18059086502713e+003	-1.63948723197345e+000
6.32455532033671e+003	-1.63949120994834e+000
6.47187313859252e+003	-1.63949554893405e+000
6.62262242965177e+003	-1.63950025855554e+000
6.77688312278400e+003	-1.63950534926619e+000
6.93473700905058e+003	-1.63951083237697e+000
7.09626778467146e+003	-1.63951672008011e+000
7.26156109540197e+003	-1.63952302548431e+000
7.43070458194339e+003	-1.63952976264512e+000
7.60378792641117e+003	-1.63953694660060e+000
7.78090289988555e+003	-1.63954459341053e+000
7.96214341106988e+003	-1.63955272019657e+000
8.14760555608219e+003	-1.63956134518740e+000
8.33738766940664e+003	-1.63957048776422e+000
8.53159037603179e+003	-1.63958016851262e+000
8.73031664480325e+003	-1.63959040927317e+000
8.93367184301919e+003	-1.63960123320396e+000
9.14176379229743e+003	-1.63961266483717e+000
9.35470282574389e+003	-1.63962473014648e+000
9.57260184645269e+003	-1.63963745661670e+000
9.79557638736884e+003	-1.63965087331721e+000
1.00237446725454e+004	-1.63966501098123e+000
1.02572276798272e+004	-1.63967990209226e+000
1.04961492049954e+004	-1.63969558097036e+000
1.07406359274050e+004	-1.63971208387039e+000
1.09908174771524e+004	-1.63972944908422e+000
1.12468265038069e+004	-1.63974771704823e+000
1.15087987467430e+004	-1.63976693046059e+000
1.17768731071117e+004	-1.63978713440474e+000
1.20511917214871e+004	-1.63980837647986e+000
1.23319000372295e+004	-1.63983070694487e+000
1.26191468896038e+004	-1.63985417886523e+000
1.29130845806930e+004	-1.63987884827621e+000
1.32138689601518e+004	-1.63990477435167e+000
1.35216595078395e+004	-1.63993201958788e+000
1.38366194183786e+004	-1.63996065000018e+000
1.41589156876826e+004	-1.63999073533064e+000
1.44887192014997e+004	-1.64002234926882e+000
1.48262048260182e+004	-1.64005556969702e+000
1.51715515005835e+004	-1.64009047893959e+000
1.55249423325737e+004	-1.64012716403795e+000
1.58865646944855e+004	-1.64016571704721e+000
1.62566103232818e+004	-1.64020623534408e+000
1.66352754220533e+004	-1.64024882196799e+000
1.70227607640474e+004	-1.64029358597935e+000
1.74192717991215e+004	-1.64034064284755e+000
1.78250187626748e+004	-1.64039011486505e+000
1.82402167871180e+004	-1.64044213159326e+000
1.86650860159397e+004	-1.64049683034125e+000
1.90998517204286e+004	-1.64055435668044e+000
1.95447444191160e+004	-1.64061486499598e+000
2.00000000000000e+004	-1.64067851908332e+000
2.00000000000000e+001	-1.25160250544710e+000
2.04658598456151e+001	-1.07028099924879e+000
2.09425709610180e+001	-8.92418501551584e-001
2.14303861047521e+001	-7.18071193773126e-001
2.19295639228637e+001	-5.47289836339856e-001
2.24403690860393e+001	-3.80119648127829e-001
2.29630724299377e+001	-2.16600209110629e-001
2.34979510987906e+001	-5.67653865788200e-002
2.40452886923483e+001	9.93567148212384e-002
2.46053754162476e+001	2.51743779177664e-001
2.51785082358833e+001	4.00379281585856e-001
2.57649910338627e+001	5.45252466847790e-001
2.63651347711281e+001	6.86358304972951e-001
2.69792576518331e+001	8.23697424002337e-001
2.76076852920577e+001	9.57276020826807e-001
2.82507508924551e+001	1.08710575079903e+000
2.89087954149185e+001	1.21320359706285e+000
2.95821677633641e+001	1.33559172065537e+000
3.02712249687242e+001	1.45429729253127e+000
3.09763323782496e+001	1.56935230877254e+000
3.16978638492223e+001	1.68079339032755e+000
3.24362019471786e+001	1.78866156869961e+000
3.31917381487512e+001	1.89300205907856e+000
3.39648730492349e+001	1.99386402245462e+000
3.47560165749875e+001	2.09130031828808e+000
3.55655882007784e+001	2.18536724935702e+000
3.63940171721997e+001	2.27612430038488e+000
3.72417427332573e+001	2.36363387208476e+000
3.81092143592649e+001	2.44796101221371e+000
3.89968919951609e+001	2.52917314523137e+000
3.99052462993776e+001	2.60733980210010e+000
4.08347588933906e+001	2.68253235171861e+000
4.17859226170808e+001	2.75482373543047e+000
4.27592417900446e+001	2.82428820596233e+000
4.37552324789910e+001	2.89100107207517e+000
4.47744227713668e+001	2.95503845012122e+000
4.58173530553554e+001	3.01647702359650e+000
4.68845763063984e+001	3.07539381169359e+000
4.79766583803898e+001	3.13186594771496e+000
4.90941783137006e+001	3.18597046814391e+000
5.02377286301916e+001	3.23778411300706e+000
5.14079156553772e+001	3.28738313809115e+000
5.26053598379076e+001	3.33484313942044e+000
5.38306960785383e+001	3.38023889031803e+000
5.50845740667633e+001	3.42364419125267e+000
5.63676586252890e+001	3.46513173256138e+000
5.76806300625321e+001	3.50477297004001e+000
5.90241845333277e+001	3.54263801329906e+000
6.03990344080403e+001	3.57879552669577e+000
6.18059086502718e+001	3.61331264255819e+000
6.32455532033675e+001	3.64625488635647e+000
6.47187313859256e+001	3.67768611341374e+000
6.62262242965182e+001	3.70766845667210e+000
6.77688312278404e+001	3.73626228500112e+000
6.93473700905062e+001	3.76352617149498e+000
7.09626778467150e+001	3.78951687115470e+000
7.26156109540202e+001	3.81428930735348e+000
7.43070458194344e+001	3.83789656645521e+000
7.60378792641121e+001	3.86038989994520e+000
7.78090289988560e+001	3.88181873344482e+000
7.96214341106993e+001	3.90223068196972e+000
8.14760555608224e+001	3.92167157082137e+000
8.33738766940670e+001	3.94018546149694e+000
8.53159037603184e+001	3.95781468204108e+000
8.73031664480331e+001	3.97459986127380e+000
8.93367184301925e+001	3.99057996636089e+000
9.14176379229749e+001	4.00579234321980e+000
9.35470282574395e+001	4.02027275928640e+000
9.57260184645275e+001	4.03405544819307e+000
9.79557638736891e+001	4.04717315595449e+000
1.00237446725454e+002	4.05965718826764e+000
1.02572276798273e+002	4.07153745859039e+000
1.04961492049954e+002	4.08284253667165e+000
1.07406359274050e+002	4.09359969725146e+000
1.09908174771525e+002	4.10383496867169e+000
1.12468265038070e+002	4.11357318117095e+000
1.15087987467431e+002	4.12283801465820e+000
1.17768731071118e+002	4.13165204579072e+000
1.20511917214871e+002	4.14003679420331e+000
1.23319000372296e+002	4.14801276775743e+000
1.26191468896038e+002	4.15559950669638e+000
1.29130845806931e+002	4.16281562662465e+000
1.32138689601519e+002	4.16967886022404e+000
1.35216595078396e+002	4.17620609765927e+000
1.38366194183787e+002	4.18241342561884e+000
1.41589156876827e+002	4.18831616496858e+000
1.44887192014998e+002	4.19392890699134e+000
1.48262048260183e+002	4.19926554820426e+000
1.51715515005836e+002	4.20433932375679e+000
1.55249423325738e+002	4.20916283940825e+000
1.58865646944856e+002	4.21374810211022e+000
1.62566103232819e+002	4.21810654920519e+000
1.66352754220534e+002	4.22224907627171e+000
1.70227607640475e+002	4.22618606364778e+000
1.74192717991216e+002	4.22992740166184e+000
1.78250187626749e+002	4.23348251461525e+000
1.82402167871181e+002	4.23686038355412e+000
1.86650860159398e+002	4.24006956787332e+000
1.90998517204287e+002	4.24311822579620e+000
1.95447444191162e+002	4.24601413378007e+000
1.99999999999999e+002	4.24876470488900e+000
2.04658598456150e+002	4.25137700618825e+000
2.09425709610179e+002	4.25385777519919e+000
2.14303861047521e+002	4.25621343546938e+000
2.19295639228636e+002	4.25845011130623e+000
2.24403690860392e+002	4.26057364171064e+000
2.29630724299376e+002	4.26258959356831e+000
2.34979510987905e+002	4.26450327413619e+000
2.40452886923482e+002	4.26631974286767e+000
2.46053754162476e+002	4.26804382262150e+000
2.51785082358833e+002	4.26968011028830e+000
2.57649910338626e+002	4.27123298688276e+000
2.63651347711281e+002	4.27270662712295e+000
2.69792576518330e+002	4.27410500854790e+000
2.76076852920576e+002	4.27543192018736e+000
2.82507508924550e+002	4.27669097083175e+000
2.89087954149185e+002	4.27788559691657e+000
2.95821677633641e+002	4.27901907005113e+000
3.02712249687241e+002	4.28009450421742e+000
3.09763323782495e+002	4.28111486266241e+000
3.16978638492222e+002	4.28208296449063e+000
3.24362019471785e+002	4.28300149099546e+000
3.31917381487511e+002	4.28387299172866e+000
3.39648730492348e+002	4.28469989032588e+000
3.47560165749874e+002	4.28548449010949e+000
3.55655882007783e+002	4.28622897947189e+000
3.63940171721995e+002	4.28693543704892e+000
3.72417427332572e+002	4.28760583670068e+000
3.81092143592648e+002	4.28824205229989e+000
3.89968919951608e+002	4.28884586234168e+000
3.99052462993775e+002	4.28941895437269e+000
4.08347588933904e+002	4.28996292925696e+000
4.17859226170806e+002	4.29047930527276e+000
4.27592417900445e+002	4.29096952205547e+000
4.37552324789909e+002	4.29143494437983e+000
4.47744227713666e+002	4.29187686579946e+000
4.58173530553553e+002	4.29229651213060e+000
4.68845763063983e+002	4.29269504480621e+000
4.79766583803896e+002	4.29307356407770e+000
4.90941783137004e+002	4.29343311209212e+000
5.02377286301914e+002	4.29377467583410e+000
5.14079156553771e+002	4.29409918993879e+000
5.26053598379074e+002	4.29440753938423e+000
5.38306960785381e+002	4.29470056205867e+000
5.50845740667631e+002	4.29497905121439e+000
5.63676586252888e+002	4.29524375780754e+000
